time,amplitude
0.0,0.0
0.005005005005005005,0.0314421909191206
0.01001001001001001,0.06285329004448194
0.015015015015015015,0.09420223632762625
0.02002002002002002,0.12545803018029603
0.025025025025025023,0.15658976412855766
0.03003003003003003,0.18756665337583714
0.035035035035035036,0.21835806624464546
0.04004004004004004,0.2489335544668916
0.04504504504504504,0.27926288329283006
0.050050050050050046,0.30931606138886886
0.055055055055055056,0.3390633704946752
0.06006006006006006,0.3684753948102499
0.06506506506506507,0.397523050083913
0.07007007007007007,0.42617761237243534
0.07507507507507508,0.45441074644487744
0.08008008008008008,0.4821945338020477
0.08508508508508508,0.5095015002838732
0.09009009009009009,0.5363046432373824
0.09509509509509509,0.5625774582184371
0.10010010010010009,0.588293965200805
0.10510510510510511,0.6134287342666618
0.11011011011011011,0.6379569107531119
0.11511511511511512,0.661854239829868
0.12012012012012012,0.6850970904837809
0.12512512512512514,0.7076624788865045
0.13013013013013014,0.7295280911221885
0.13513513513513514,0.7506723052527243
0.14014014014014015,0.7710742126987248
0.14514514514514515,0.7907136389150937
0.15015015015015015,0.809571163340744
0.15515515515515516,0.8276281386027312
0.16016016016016016,0.8448667089558177
0.16516516516516516,0.8612698279392308
0.17017017017017017,0.8768212752331536
0.17517517517517517,0.8915056726982838
0.18018018018018017,0.9053084995825966
0.18518518518518517,0.918216106880274
0.19019019019019018,0.9302157308286042
0.19519519519519518,0.9412955055295031
0.20020020020020018,0.9514444746831766
0.20520520520520522,0.9606526024223211
0.21021021021021022,0.9689107832361495
0.21521521521521522,0.9762108509744296
0.22022022022022023,0.9825455869226277
0.22522522522522523,0.9879087269401781
0.23023023023023023,0.9922949676548136
0.23523523523523523,0.9956999717068377
0.24024024024024024,0.9981203720381463
0.24524524524524524,0.9995537752217638
0.2502502502502503,0.9999987638285974
0.2552552552552553,0.9994548978290693
0.2602602602602603,0.9979227150282433
0.2652652652652653,0.9954037305340125
0.2702702702702703,0.9919004352588768
0.2752752752752753,0.9874162934567889
0.2802802802802803,0.9819557392975067
0.2852852852852853,0.9755241724818388
0.2902902902902903,0.9681279529021188
0.2952952952952953,0.959774394353189
0.3003003003003003,0.9504717573001115
0.3053053053053053,0.940229240709759
0.3103103103103103,0.9290569729543627
0.3153153153153153,0.9169660017960134
0.3203203203203203,0.9039682834620162
0.3253253253253253,0.8900766708219059
0.3303303303303303,0.8753049006778131
0.3353353353353353,0.8596675801807454
0.34034034034034033,0.8431801723862224
0.34534534534534533,0.8258589809635433
0.35035035035035034,0.8077211340738071
0.35535535535535534,0.7887845674326315
0.36036036036036034,0.769068006574317
0.36536536536536535,0.7485909483349906
0.37037037037037035,0.7273736415730488
0.37537537537537535,0.7054370671459533
0.38038038038038036,0.6828029171631891
0.38538538538538536,0.6594935735358961
0.39039039039039036,0.6355320858443845
0.39539539539539537,0.6109421485454231
0.40040040040040037,0.5857480775418397
0.40540540540540543,0.5599747861375954
0.41041041041041043,0.5336477604021221
0.41541541541541543,0.5067930339682726
0.42042042042042044,0.47943716228880995
0.42542542542542544,0.451607196376895
0.43043043043043044,0.4233306560565345
0.43543543543543545,0.3946355027494407
0.44044044044044045,0.365550111825219
0.44544544544544545,0.33610324454221624
0.45045045045045046,0.30632401960678335
0.45545545545545546,0.2762418843790745
0.46046046046046046,0.24588658575385056
0.46546546546546547,0.21528814074509034
0.47047047047047047,0.18447680680349254
0.4754754754754755,0.1534830518962162
0.4804804804804805,0.12233752437845731
0.4854854854854855,0.09107102268664109
0.4904904904904905,0.059714464883209896
0.4954954954954955,0.028298858083118276
0.5005005005005005,-0.0031447322077364425
0.5055055055055055,-0.03458521281181766
0.5105105105105106,-0.06599149362662067
0.5155155155155156,-0.09733251836830262
0.5205205205205206,-0.12857729528186893
0.5255255255255256,-0.1596949277875495
0.5305305305305306,-0.19065464503306445
0.5355355355355356,-0.2214258323215593
0.5405405405405406,-0.2519780613851252
0.5455455455455456,-0.2822811204739715
0.5505505505505506,-0.3123050442314895
0.5555555555555556,-0.34202014332566866
0.5605605605605606,-0.3713970338075683
0.5655655655655656,-0.40040666616780385
0.5705705705705706,-0.4290203540623263
0.5755755755755756,-0.4572098026790792
0.5805805805805806,-0.4849471367174877
0.5855855855855856,-0.5122049279531141
0.5905905905905906,-0.5389562223602165
0.5955955955955956,-0.5651745667653927
0.6006006006006006,-0.5908340350059581
0.6056056056056056,-0.6159092535671795
0.6106106106106106,-0.6403754266730258
0.6156156156156156,-0.664208360805614
0.6206206206206206,-0.6873844886291102
0.6256256256256256,-0.7098808922944283
0.6306306306306306,-0.7316753261016783
0.6356356356356356,-0.7527462384979546
0.6406406406406406,-0.7730727933887175
0.6456456456456456,-0.7926348907416847
0.6506506506506506,-0.8114131864628659
0.6556556556556556,-0.8293891115250824
0.6606606606606606,-0.8465448903300604
0.6656656656656657,-0.8628635582859311
0.6706706706706707,-0.8783289785827684
0.6756756756756757,-0.8929258581495684
0.6806806806806807,-0.9066397627768893
0.6856856856856857,-0.9194571313902051
0.6906906906906907,-0.931365289459854
0.6956956956956957,-0.9423524615343186
0.7007007007007007,-0.9524077828844512
0.7057057057057057,-0.9615213102471253
0.7107107107107107,-0.9696840316576876
0.7157157157157157,-0.9768878753614926
0.7207207207207207,-0.9831257177957041
0.7257257257257257,-0.9883913906334727
0.7307307307307307,-0.9926796868835203
0.7357357357357357,-0.9959863660391043
0.7407407407407407,-0.9983081582712682
0.7457457457457457,-0.9996427676622299
0.7507507507507507,-0.999988874475714
0.7557557557557557,-0.9993461364619809
0.7607607607607607,-0.9977151891962615
0.7657657657657657,-0.9950976454502661
0.7707707707707707,-0.9914960935973849
0.7757757757757757,-0.9869140950531601
0.7807807807807807,-0.9813561807535597
0.7857857857857857,-0.9748278466745344
0.7907907907907907,-0.9673355483972903
0.7957957957957957,-0.9588866947246498
0.8008008008008007,-0.9494896403548136
0.8058058058058059,-0.9391536776197676
0.8108108108108109,-0.9278890272965095
0.8158158158158159,-0.9157068285001692
0.8208208208208209,-0.9026191276690338
0.8258258258258259,-0.888638866652356
0.8308308308308309,-0.8737798699127286
0.8358358358358359,-0.8580568308556874
0.8408408408408409,-0.8414852973000504
0.8458458458458459,-0.8240816561033645
0.8508508508508509,-0.805863116957669
0.8558558558558559,-0.7868476953715897
0.8608608608608609,-0.7670541948555989
0.8658658658658659,-0.7465021883280519
0.8708708708708709,-0.7252119987603971
0.8758758758758759,-0.7032046790806841
0.8808808808808809,-0.6805019913552525
0.8858858858858859,-0.6571263852691884
0.8908908908908909,-0.6331009759268216
0.8958958958958959,-0.6084495209942171
0.9009009009009009,-0.5831963972062733
0.9059059059059059,-0.5573665762616425
0.9109109109109109,-0.5309856001293205
0.9159159159159159,-0.5040795557913246
0.9209209209209209,-0.4766750494464279
0.9259259259259259,-0.44879918020046244
0.9309309309309309,-0.42047951326921434
0.9359359359359359,-0.3917440527203979
0.9409409409409409,-0.3626212137816673
0.9459459459459459,-0.3331397947420577
0.950950950950951,-0.3033289484746265
0.955955955955956,-0.2732181536084663
0.960960960960961,-0.24283718537858734
0.965965965965966,-0.21221608618250784
0.970970970970971,-0.18138513587265162
0.975975975975976,-0.150374821813937
0.980980980980981,-0.11921580873617336
0.985985985985986,-0.08793890841106189
0.990990990990991,-0.056575049183792726
0.995995995995996,-0.02515524538937595
1.001001001001001,0.0062894333160679146
1.006006006006006,0.03772789267871761
1.011011011011011,0.06912904459478524
1.016016016016016,0.10046183785216803
1.021021021021021,0.13169528883562395
1.026026026026026,0.16279851216509494
1.031031031031031,0.19374075123689763
1.0360360360360361,0.22449140863757286
1.0410410410410411,0.25502007640031094
1.0460460460460461,0.2852965660740497
1.0510510510510511,0.3152909385755026
1.0560560560560561,0.3449735337945909
1.0610610610610611,0.37431499992401873
1.0660660660660661,0.40328632248398133
1.0710710710710711,0.4318588530132977
1.0760760760760761,0.4600043373986108
1.0810810810810811,0.48769494381363454
1.0860860860860861,0.5149032902408129
1.0910910910910911,0.5416024715481897
1.0960960960960962,0.5677660860947078
1.1011011011011012,0.5933682618376205
1.1061061061061062,0.6183836819162157
1.1111111111111112,0.6427876096865393
1.1161161161161162,0.6665559131823721
1.1211211211211212,0.6896650889782622
1.1261261261261262,0.7120922854310253
1.1311311311311312,0.7338153252767278
1.1361361361361362,0.7548127275607991
1.1411411411411412,0.7750637288796014
1.1461461461461462,0.7945483039124436
1.1511511511511512,0.8132471852237331
1.1561561561561562,0.8311418823156933
1.1611611611611612,0.8482146999128022
1.1661661661661662,0.864448755459865
1.1711711711711712,0.8798279958164291
1.1761761761761762,0.8943372131310271
1.1811811811811812,0.9079620598795461
1.1861861861861862,0.9206890630528632
1.1911911911911912,0.9325056374797073
1.1961961961961962,0.9434000982715812
1.2012012012012012,0.9533616723774294
1.2062062062062062,0.9623805092366334
1.2112112112112112,0.970447690519797
1.2162162162162162,0.9775552389476863
1.2212212212212212,0.98369612617961
1.2262262262262262,0.9888642797634357
1.2312312312312312,0.9930545891403677
1.2362362362362362,0.9962629106985543
1.2412412412412412,0.9984860718705224
1.2462462462462462,0.9997218742703887
1.2512512512512513,0.999969095867747
1.2562562562562563,0.9992274921960794
1.2612612612612613,0.9974977965944997
1.2662662662662663,0.9947817194825853
1.2712712712712713,0.9910819466690197
1.2762762762762763,0.9864021366957147
1.2812812812812813,0.9807469172200398
1.2862862862862863,0.9741218804387364
1.2912912912912913,0.9665335775580415
1.2962962962962963,0.9579895123154889
1.3013013013013013,0.9484981335597952
1.3063063063063063,0.9380688268961663
1.3113113113113113,0.9267119054052854
1.3163163163163163,0.914438599445166
1.3213213213213213,0.9012610455459449
1.3263263263263263,0.8871922744086042
1.3313313313313313,0.8722461980194862
1.3363363363363363,0.8564375958933457
1.3413413413413413,0.8397821004585404
1.3463463463463463,0.8222961815988099
1.3513513513513513,0.803997130366941
1.3563563563563563,0.7849030418864047
1.3613613613613613,0.76503279745789
1.3663663663663663,0.7444060458884189
1.3713713713713713,0.7230431840615102
1.3763763763763763,0.7009653367675982
1.3813813813813813,0.6781943358146669
1.3863863863863863,0.6547526984397354
1.3913913913913913,0.6306636050425575
1.3963963963963963,0.6059508762635482
1.4014014014014013,0.5806389494286068
1.4064064064064064,0.5547528543841181
1.4114114114114114,0.5283181887460523
1.4164164164164164,0.5013610925876065
1.4214214214214214,0.4739082225904436
1.4264264264264264,0.4459867256850762
1.4314314314314314,0.4176242122064669
1.4364364364364364,0.38884872859138886
1.4414414414414414,0.3596887296445368
1.4464464464464464,0.3301730504008376
1.4514514514514514,0.3003308776117511
1.4564564564564564,0.2701917208837825
1.4614614614614614,0.2397853834977361
1.4664664664664664,0.20914193293756897
1.4714714714714714,0.17829167115797728
1.4764764764764764,0.14726510462014222
1.4814814814814814,0.11609291412523105
1.4864864864864864,0.08480592447550975
1.4914914914914914,0.05343507399305771
1.4964964964964964,0.02201138392622936
1.5015015015015014,-0.009434072225895224
1.5065065065065064,-0.04087019944071032
1.5115115115115114,-0.07226591192058601
1.5165165165165164,-0.10359016383223858
1.5215215215215214,-0.13481198000658376
1.5265265265265264,-0.16590048656871317
1.5315315315315314,-0.19682494146770374
1.5365365365365364,-0.22755476487608098
1.5415415415415414,-0.2580595694288491
1.5465465465465464,-0.28830919027222096
1.5515515515515514,-0.31827371489230794
1.5565565565565564,-0.34792351269428357
1.5615615615615615,-0.37722926430276815
1.5665665665665665,-0.40616199055447094
1.5715715715715715,-0.4346930811543944
1.5765765765765765,-0.46279432296729806
1.5815815815815815,-0.4904379279164198
1.5865865865865865,-0.517596560461878
1.5915915915915915,-0.5442433646315787
1.5965965965965965,-0.5703519905779
1.6016016016016015,-0.5958966206338965
1.6066066066066067,-0.620851994843244
1.6116116116116117,-0.645193435938694
1.6166166166166167,-0.6688968737443403
1.6216216216216217,-0.6919388689775459
1.6266266266266267,-0.7142966364270209
1.6316316316316317,-0.7359480674841035
1.6366366366366367,-0.756871752004992
1.6416416416416417,-0.7770469994822888
1.6466466466466467,-0.7964538595049296
1.6516516516516517,-0.8150731414862619
1.6566566566566567,-0.8328864336407733
1.6616616616616617,-0.8498761211906863
1.6666666666666667,-0.8660254037844387
1.6716716716716717,-0.8813183121098073
1.6766766766766767,-0.8957397236852557
1.6816816816816818,-0.9092753778138881
1.6866866866866868,-0.9219118896852249
1.6916916916916918,-0.9336367636108461
1.6966966966966968,-0.9444384053808289
1.7017017017017018,-0.954306133728749
1.7067067067067068,-0.9632301908939127
1.7117117117117118,-0.9712017522703764
1.7167167167167168,-0.9782129351332083
1.7217217217217218,-0.9842568064333685
1.7267267267267268,-0.9893273896534935
1.7317317317317318,-0.9934196707178107
1.7367367367367368,-0.9965296029503368
1.7417417417417418,-0.9986541110764565
1.7467467467467468,-0.9997910942639261
1.7517517517517518,-0.9999394282002937
1.7567567567567568,-0.9990989662046815
1.7617617617617618,-0.9972705393728327
1.7667667667667668,-0.9944559557552776
1.7717717717717718,-0.9906579985694317
1.7767767767767768,-0.985880423447396
1.7817817817817818,-0.9801279547221767
1.7867867867867868,-0.9734062807560028
1.7917917917917918,-0.9657220483153547
1.7967967967967968,-0.9570828559982708
1.8018018018018018,-0.9474972467204297
1.8068068068068068,-0.9369746992674378
1.8118118118118118,-0.9255256189216783
1.8168168168168168,-0.9131613271729836
1.8218218218218218,-0.8998940505233184
1.8268268268268268,-0.8857369083965294
1.8318318318318318,-0.8707039001651274
1.8368368368368369,-0.8548098913069258
1.8418418418418419,-0.838070598705227
1.8468468468468469,-0.820502575107088
1.8518518518518519,-0.8021231927550442
1.8568568568568569,-0.7829506262084633
1.8618618618618619,-0.7630038343715273
1.8668668668668669,-0.7423025417456092
1.8718718718718719,-0.7208672189245859
1.8768768768768769,-0.6987190623523681
1.8818818818818819,-0.6758799733626797
1.8868868868868869,-0.6523725365217913
1.8918918918918919,-0.6282199972956425
1.896896896896897,-0.6034462390634262
1.901901901901902,-0.5780757595003705
1.906906906906907,-0.5521336463530713
1.911911911911912,-0.5256455526313215
1.916916916916917,-0.49863767124099206
1.921921921921922,-0.4711367090830182
1.926926926926927,-0.4431698606441262
1.931931931931932,-0.4147647811054069
1.936936936936937,-0.38594955899533
1.941941941941942,-0.3567526884142328
1.946946946946947,-0.3272030408577724
1.951951951951952,-0.2973298366671729
1.956956956956957,-0.26716261613452164
1.961961961961962,-0.2367312102916798
1.966966966966967,-0.20606571141169408
1.971971971971972,-0.17519644325187023
1.976976976976977,-0.1441539310679593
1.981981981981982,-0.11296887142907358
1.986986986986987,-0.08167210186320711
1.991991991991992,-0.050294570363366396
1.996996996996997,-0.01886730478446703
2.002002002002002,0.012578617838741387
2.007007007007007,0.04401210202238226
2.012012012012012,0.07540206458240245
2.017017017017017,0.10671746537136002
2.022022022022022,0.13792733797265497
2.027027027027027,0.16900082032184896
2.032032032032032,0.19990718522480475
2.037037037037037,0.23061587074244058
2.042042042042042,0.2610965104120889
2.047047047047047,0.2913189632755481
2.052052052052052,0.3212533436841449
2.057057057057057,0.3508700508513302
2.062062062062062,0.3801397981235967
2.067067067067067,0.40903364194074615
2.0720720720720722,0.4375230104569048
2.0770770770770772,0.46557973179395784
2.0820820820820822,0.49317606189947527
2.0870870870870872,0.5202847119815786
2.0920920920920922,0.5468788754936272
2.0970970970970972,0.57293225464202
2.1021021021021022,0.5984190863909271
2.1071071071071072,0.6233141679382171
2.1121121121121122,0.6475928816373947
2.1171171171171173,0.6712312193409036
2.1221221221221223,0.6942058061407224
2.1271271271271273,0.7164939234827832
2.1321321321321323,0.7380735316323391
2.1371371371371373,0.7589232914680892
2.1421421421421423,0.7790225855834916
2.1471471471471473,0.7983515386744064
2.1521521521521523,0.8168910371929051
2.1571571571571573,0.8346227482478172
2.1621621621621623,0.8515291377333113
2.1671671671671673,0.8675934876676015
2.1721721721721723,0.8827999127246199
2.1771771771771773,0.8971333759423145
2.1821821821821823,0.9105797035920353
2.1871871871871873,0.9231255991943121
2.1921921921921923,0.934758656667151
2.1971971971971973,0.9454673725938635
2.2022022022022023,0.955241157598287
2.2072072072072073,0.9640703468161508
2.2122122122122123,0.9719462094522339
2.2172172172172173,0.9788609574138614
2.2222222222222223,0.984807753012208
2.2272272272272273,0.9897807157237835
2.2322322322322323,0.9937749280054242
2.2372372372372373,0.9967864401570343
2.2422422422422423,0.9988122742272691
2.2472472472472473,0.9998504269583004
2.2522522522522523,0.9998998717667489
2.2572572572572573,0.9989605597588275
2.2622622622622623,0.9970334197786902
2.2672672672672673,0.9941203574899392
2.2722722722722724,0.9902242534911985
2.2772772772772774,0.9853489604676163
2.2822822822822824,0.9794992993811166
2.2872872872872874,0.9726810547031601
2.2922922922922924,0.9649009686947391
2.2972972972972974,0.956166734739251
2.3023023023023024,0.9464869897348523
2.3073073073073074,0.9358713055538118
2.3123123123123124,0.9243301795773087
2.3173173173173174,0.911875024315034
2.3223223223223224,0.8985181561198674
2.3273273273273274,0.8842727830087778
2.3323323323323324,0.8691529916019988
2.3373373373373374,0.8531737331933925
2.3423423423423424,0.8363508089657767
2.3473473473473474,0.8187008543658285
2.3523523523523524,0.8002413226540324
2.3573573573573574,0.7809904676459176
2.3623623623623624,0.7609673256616676
2.3673673673673674,0.7401916967019434
2.3723723723723724,0.7186841248685379
2.3773773773773774,0.6964658780492224
2.3823823823823824,0.6735589268868664
2.3873873873873874,0.649985923053647
2.3923923923923924,0.625770176851806
2.3973973973973974,0.6009356341631228
2.4024024024024024,0.5755068527698897
2.4074074074074074,0.549508978070807
2.4124124124124124,0.5229677182158032
2.4174174174174174,0.49590931868439
2.4224224224224224,0.46836053633266084
2.4274274274274275,0.44034861293461935
2.4324324324324325,0.4119012482439925
2.4374374374374375,0.3830465726031689
2.4424424424424425,0.35381311912633967
2.4474474474474475,0.32422979548437164
2.4524524524524525,0.29432585531928224
2.4574574574574575,0.2641308693166065
2.4624624624624625,0.2336746959642524
2.4674674674674675,0.20298745202676102
2.4724724724724725,0.1720994827641702
2.4774774774774775,0.14104133192492024
2.4824824824824825,0.10984371154250068
2.4874874874874875,0.07853747156567001
2.4924924924924925,0.047153569352305795
2.4974974974974975,0.015723039057040856
2.5025025025025025,-0.01572303905703963
2.5075075075075075,-0.047153569352304574
2.5125125125125125,-0.07853747156566879
2.5175175175175175,-0.10984371154249946
2.5225225225225225,-0.14104133192491902
2.5275275275275275,-0.172099482764169
2.5325325325325325,-0.20298745202675983
2.5375375375375375,-0.2336746959642512
2.5425425425425425,-0.26413086931660534
2.5475475475475475,-0.29432585531928107
2.5525525525525525,-0.3242297954843688
2.5575575575575575,-0.3538131191263385
2.5625625625625625,-0.3830465726031661
2.5675675675675675,-0.411901248243993
2.5725725725725725,-0.44034861293461824
2.5775775775775776,-0.4683605363326613
2.5825825825825826,-0.4959093186843889
2.5875875875875876,-0.5229677182158006
